# column 1: total pressure [Pa]
# column 2: pure component isotherm value
# column 3: mixture component isotherm value
# column 4: gas-phase mol-fraction y_i
# column 5: adsorbed phase mol-fraction x_i
# column 6: hypothetical pressure p_i^*
# column 7: reduced grand potential psi_i
100 0.055601983649677 0.010649141882546 0.2 0.22613249434295 0.041258778267329
109.74987654931 0.062189311680396 0.011896735671652 0.2 0.22652492141027 0.045887739295297
120.45035402588 0.069561170417162 0.013292577047848 0.2 0.22693184733895 0.051050306770118
132.1941148466 0.077809034307461 0.014854090088023 0.2 0.22735182732541 0.056808480499469
145.08287784959 0.087034361717644 0.016600652507608 0.2 0.22778346647122 0.063231370343159
159.22827933411 0.09734949811976 0.018553787728912 0.2 0.2282254194488 0.070395971534271
174.75284000077 0.10887861067257 0.020737368579393 0.2 0.22867638993015 0.078388013055538
191.79102616725 0.12175863988903 0.023177831230267 0.2 0.22913512981025 0.08730288284805
210.4904144512 0.13614024869853 0.025904397212642 0.2 0.22960043825572 0.097246632914317
231.01297000832 0.15218874264864 0.028949300374933 0.2 0.23007116060709 0.10833706633176
253.53644939701 0.17008492711856 0.032348014438587 0.2 0.23054618716216 0.12070490673503
278.25594022071 0.19002585813752 0.036139475335725 0.2 0.2310244518664 0.13449504886367
305.38555088334 0.21222543268072 0.040366290741651 0.2 0.23150493093634 0.14986788620148
335.16026509388 0.23691475221548 0.045074927123225 0.2 0.23198664144064 0.16700070844224
367.83797718286 0.2643421799985 0.050315862199588 0.2 0.23246863986428 0.18608915738298
403.70172585966 0.29477299859652 0.056143687963503 0.2 0.23295002068121 0.20734872475279
443.06214575839 0.3284885600069 0.06261714637969 0.2 0.2334299149612 0.23101626932278
486.26015800654 0.36578480763534 0.069799076644162 0.2 0.23390748903803 0.25735152332671
533.66992312063 0.40697003871959 0.077756249598527 0.2 0.23438194326669 0.28663854971152
585.70208180567 0.45236176953602 0.086559061763927 0.2 0.2348525108986 0.3191871020594
642.80731172843 0.50228256637932 0.096281058803078 0.2 0.23531845710518 0.35533382830735
705.48023107186 0.55705471583977 0.10699825645655 0.2 0.23577907818062 0.39544324790104
774.26368268113 0.61699363165276 0.11878822666916 0.2 0.23623370095578 0.43990842020495
849.75343590864 0.68239993578844 0.13172891837617 0.2 0.23668168245436 0.48915121051563
932.60334688322 0.75355021156773 0.14589718699966 0.2 0.23712240982188 0.54362204981954
1023.531021899 0.83068650854095 0.1613670148964 0.2 0.23755530055483 0.60379907670945
1123.324032978 0.91400478296284 0.17820741753456 0.2 0.23797980305351 0.67018654611363
1232.8467394421 1.0036425815377 0.19648004761845 0.2 0.23839539751468 0.74331239142643
1353.0477745798 1.0996664136398 0.2162365319373 0.2 0.23880159717165 0.82372483611648
1484.9682622545 1.202059398056 0.23751560304858 0.2 0.23919794987651 0.91198796975723
1629.7508346206 1.3107098995518 0.26034011891391 0.2 0.23958404000465 1.0086762332168
1788.6495290574 1.4254019694733 0.28471409624798 0.2 0.23995949064317 1.1143677994035
1963.0406500403 1.5458084522602 0.31061991455533 0.2 0.24032396600497 1.2296368894628
2154.4346900319 1.6714875960285 0.33801587361279 0.2 0.24067717398812 1.3550451283045
2364.4894126454 1.8018838947435 0.36683430286045 0.2 0.2410188687787 1.4911321148167
2595.0242113997 1.9363336852897 0.39698042206644 0.2 0.24134885337501 1.6384054563621
2848.0358684358 2.0740757308627 0.42833213471957 0.2 0.24166698189497 1.797330587784
3125.7158496882 2.2142666631263 0.46074089652676 0.2 0.24197316151879 1.9683207546504
3430.4692863149 2.3560007641323 0.49403374135025 0.2 0.24226735391685 2.1517275809418
3764.9358067925 2.4983331900289 0.52801646930152 0.2 0.24254957602145 2.3478326556683
4132.0124001153 2.6403054206517 0.56247791320234 0.2 0.24281990002012 2.5568405557756
4534.8785081286 2.7809715059635 0.59719510965679 0.2 0.2430784524783 2.7788736720221
4977.0235643321 2.9194236026331 0.63193912046332 0.2 0.24332541253842 3.013969121994
5462.2772176843 3.0548153632406 0.66648118966111 0.2 0.24356100918856 3.2620779258639
5994.8425031894 3.1863819464791 0.70059888957197 0.2 0.2437855176432 3.5230664952046
6579.3322465757 3.3134557296395 0.7340819103518 0.2 0.24399925492617 3.796720354875
7220.8090183855 3.4354771813865 0.76673718163761 0.2 0.24420257478897 4.0827498951539
7924.8289835392 3.5520007448484 0.79839307697552 0.2 0.2443958621305 4.3807978473171
8697.4900261778 3.66269594298 0.82890253321108 0.2 0.24457952710586 4.6904480994951
9545.4845666183 3.7673442146559 0.85814500720057 0.2 0.24475399911967 5.0112354259769
10476.157527897 3.8658321995697 0.88602728019497 0.2 0.24491972089389 5.3426556930812
11497.569953977 3.9581423060238 0.91248319678317 0.2 0.24507714278306 5.6841761254897
12618.56883066 4.0443414241136 0.93747248388663 0.2 0.24522671748298 6.0352452627736
13848.863713939 4.1245686027709 0.96097883282201 0.2 0.24536889524631 6.3953022992597
15199.110829529 4.1990224126159 0.983007443896 0.2 0.24550411968262 6.7637855733837
16681.005372001 4.2679485885284 1.0035822308758 0.2 0.24563282418509 7.1401400478008
18307.382802954 4.3316284052123 1.022742866086 0.2 0.24575542899342 7.5238236926327
20092.33002565 4.3903681009703 1.0405418205684 0.2 0.24587233887444 7.9143127468662
22051.30739903 4.4444895400427 1.0570415223218 0.2 0.24598394137991 8.3111058844153
24201.282647944 4.4943221985124 1.0723117230662 0.2 0.24609060562488 8.7137273506643
26560.877829467 4.5401964755122 1.0864271332285 0.2 0.24619268152004 9.1217291626374
29150.530628252 4.5824382701165 1.099465357896 0.2 0.24629049938692 9.5346924824464
31992.671377974 4.621364722832 1.1115051443652 0.2 0.24638436988464 9.9522282810179
35111.917342151 4.6572809959702 1.1226249349089 0.2 0.24647458418032 10.373977409204
38535.285937105 4.6904779559793 1.1329017062547 0.2 0.246561414301 10.79961018813
42292.428743895 4.7212306196727 1.1424100694239 0.2 0.24664511361249 11.228825621753
46415.888336128 4.7497972322283 1.1512215992799 0.2 0.24672591737868 11.661350323548
50941.380148164 4.7764188553178 1.1594043615964 0.2 0.24680404336314 12.096937237195
55908.101825122 4.8013193567679 1.1670226059367 0.2 0.24687969244292 12.535364218978
61359.072734132 4.8247057072587 1.1741365944958 0.2 0.24695304921199 12.976432537943
67341.506577508 4.8467685036533 1.1808025397672 0.2 0.24702428255807 13.419965339116
73907.220335258 4.8676826519246 1.1870726270485 0.2 0.24709354620251 13.865806105479
81113.083078969 4.8876081548757 1.192995101085 0.2 0.24716097919766 14.313817146017
89021.508544504 4.9066909607122 1.1986143993662 0.2 0.24722670637976 14.763878130013
97700.995729923 4.9250638379555 1.2039713175948 0.2 0.24729083877882 15.215884681821
107226.72220103 4.9428472502163 1.2091031955648 0.2 0.24735347398897 15.669747045448
117681.1952435 4.9601502110691 1.2140441140793 0.2 0.2474146965048 16.125388824383
129154.96650149 4.9770711048088 1.2188250956053 0.2 0.2474745780302 16.58274579899
141747.41629268 4.9936984633771 1.2234743031099 0.2 0.24753317776708 17.041764821463
155567.61439305 5.0101116933578 1.2280172329789 0.2 0.24759054269193 17.502402786508
170735.26474707 5.0263817497972 1.232476899121 0.2 0.24764670782818 17.96462567471
187381.74228604 5.0425717558383 1.2368740063246 0.2 0.24770169652225 18.428407664587
205651.23083487 5.05873756886 1.2412271117179 0.2 0.24775552073136 18.893730308856
225701.97196339 5.0749282951058 1.2455527737921 0.2 0.24780818133017 19.360581770088
247707.63559917 5.0911867557257 1.2498656889268 0.2 0.24785966844338 19.828956110855
271858.82427329 5.1075499078265 1.2541788157231 0.2 0.24790996181051 20.298852633534
298364.72402833 5.1240492245715 1.2585034877255 0.2 0.24795903118855 20.770275265098
327454.91628777 5.1407110386466 1.262849515317 0.2 0.24800683679718 21.2432319825
359381.36638046 5.1575568535344 1.2672252777116 0.2 0.2480533298106 21.717734274583
394420.60594377 5.1746036270619 1.2716378060695 0.2 0.24809845289873 22.193796636805
432876.12810831 5.1918640316033 1.2760928588123 0.2 0.24814214081982 22.671436095483
475081.01621028 5.2093466951739 1.2805949902445 0.2 0.24818432106493 23.150671758664
521400.82879997 5.2270564274293 1.2851476135869 0.2 0.24822491455375 23.631524391149
572236.76593502 5.2449944343172 1.2897530595068 0.2 0.24826383637994 24.114016011618
628029.14418343 5.2631585248119 1.2944126311871 0.2 0.24830099660246 24.598169510188
689261.21043497 5.2815433128068 1.2991266569251 0.2 0.24833630107839 25.084008285153
756463.32755463 5.3001404168539 1.3038945411749 0.2 0.24836965233105 25.571555897979
830217.56813198 5.318938660026 1.3087148148695 0.2 0.24840095044589 26.060835746016
911162.75611549 5.3379242717458 1.3135851857591 0.2 0.24843009398553 26.551870752638
1000000 5.3570810929812 1.3185025893972 0.2 0.24845698091397 27.044683074844
